# re(psi_t) im(psi_t) re(psi_t+dt) im(psi_t+dt)
1.0 -0.0 0.9971888181122075 -0.07492970727274235
0.9992969573935987 -0.03749121155546027 0.9936785463792964 -0.1122628454366286
0.9971888181122075 -0.07492970727274235 0.9887710779360422 -0.14943813247359924
0.9936785463792964 -0.1122628454366286 0.9824733131012553 -0.18640329676226988
0.9887710779360422 -0.14943813247359924 0.9747941070689433 -0.22310636213174548
0.9824733131012553 -0.18640329676226988 0.9657442574571544 -0.2594957209445453
0.9747941070689433 -0.22310636213174548 0.955336489125606 -0.2955202066613396
0.9657442574571544 -0.25949572094454537 0.9435854362834473 -0.3311291657854629
0.955336489125606 -0.2955202066613396 0.9305076219123143 -0.36627252908604757
0.9435854362834473 -0.3311291657854629 0.9161214345336103 -0.40090088199962853
0.9305076219123143 -0.36627252908604757 0.900447102352677 -0.4349655341112302
0.9161214345336103 -0.40090088199962853 0.8835066648162144 -0.4684185876172393
0.9004471023526769 -0.4349655341112303 0.8653239416229412 -0.5012130046737979
0.8835066648162144 -0.4684185876172393 0.8459244992310679 -0.5333026735360201
0.8653239416229412 -0.5012130046737979 0.8253356149096782 -0.5646424733950355
0.8459244992310679 -0.5333026735360201 0.8035862383845648 -0.5951883378216895
0.8253356149096782 -0.5646424733950355 0.7807069511324468 -0.6248973167276999
0.8035862383845647 -0.5951883378216895 0.7567299233808094 -0.6537276367571394
0.7807069511324468 -0.6248973167276999 0.7316888688738209 -0.6816387600233341
0.7567299233808094 -0.6537276367571394 0.7056189974679364 -0.7085914411085871
0.7316888688738209 -0.6816387600233341 0.6785569656238398 -0.7345477822465786
0.7056189974679364 -0.7085914411085871 0.6505408248643352 -0.7594712866098562
0.6785569656238398 -0.7345477822465786 0.6216099682706644 -0.7833269096274834
0.6505408248643352 -0.7594712866098562 0.5918050750924773 -0.8060811082606931
0.6216099682706644 -0.7833269096274834 0.5611680535493413 -0.8277018881672578
0.5918050750924775 -0.806081108260693 0.5297419819042122 -0.8481588486882615
0.5611680535493413 -0.8277018881672576 0.49757104789172696 -0.867423225594017
0.5297419819042122 -0.8481588486882615 0.4647004865864822 -0.885467931529023
0.49757104789172696 -0.867423225594017 0.431176516798666 -0.9022675940990953
0.4647004865864822 -0.885467931529023 0.3970462760864716 -0.9177985915471135
0.4311765167986662 -0.9022675940990952 0.3623577544766734 -0.9320390859672264
0.3970462760864716 -0.9177985915471135 0.3271597269865614 -0.9449690540108066
0.3623577544766734 -0.9320390859672264 0.2915016850421088 -0.956570315040986
0.3271597269865614 -0.9449690540108066 0.2554337668888115 -0.9668265566961803
0.2915016850421088 -0.956570315040986 0.2190066870930415 -0.9757233578266591
0.2554337668888117 -0.9668265566961802 0.18227166523304486 -0.9832482087719117
0.2190066870930415 -0.9757233578266591 0.14528035387985133 -0.9893905289502953
0.18227166523304486 -0.9832482087719117 0.10808476596935639 -0.994141681736235
0.14528035387985133 -0.9893905289502953 0.0707372016677029 -0.9974949866040544
0.10808476596935639 -0.994141681736235 0.03329017483278921 -0.9994457285213652
0.0707372016677029 -0.9974949866040544 -0.004203660824688486 -0.9999911645788031
0.03329017483278921 -0.9994457285213652 -0.04169158577684095 -0.9991305278467936
-0.004203660824688486 -0.9999911645788031 -0.07912088880673408 -0.9968650284539189
-0.041691585776840505 -0.9991305278467936 -0.11643894112485227 -0.9931978518853749
-0.07912088880673408 -0.9968650284539189 -0.1535932703696606 -0.9881341545039076
-0.11643894112485227 -0.9931978518853749 -0.19053163438821616 -0.9816810562995271
-0.1535932703696606 -0.9881341545039076 -0.2272020946930873 -0.9738476308781951
-0.19053163438821616 -0.9816810562995271 -0.2635530894922925 -0.9646448927035626
-0.2272020946930873 -0.9738476308781951 -0.2995335061895745 -0.9540857816096937
-0.2635530894922925 -0.9646448927035626 -0.33509275325306387 -0.9421851446065583
-0.29953350618957414 -0.9540857816096938 -0.3701808313512871 -0.9289597150038692
-0.33509275325306387 -0.9421851446065583 -0.4047484036564843 -0.9144280888826237
-0.3701808313512871 -0.9289597150038692 -0.4387468652163946 -0.898610698947429
-0.4047484036564843 -0.9144280888826237 -0.4721284112969606 -0.881529785796378
-0.4387468652163946 -0.898610698947429 -0.5048461045998576 -0.8632093666488737
-0.4721284112969602 -0.8815297857963782 -0.5368539412603359 -0.8436752015753715
-0.5048461045998576 -0.8632093666488737 -0.5681069155325733 -0.8229547572765259
-0.5368539412603359 -0.8436752015753715 -0.5985610830715895 -0.801077168462668
-0.5681069155325733 -0.8229547572765259 -0.6281736227227395 -0.778073196887921
-0.5985610830715895 -0.801077168462668 -0.6569028967319059 -0.753975188096552
-0.6281736227227391 -0.7780731968879212 -0.6847085092917308 -0.7288170259423801
-0.6569028967319059 -0.753975188096552 -0.7115513633415603 -0.7026340849451916
-0.6847085092917308 -0.7288170259423801 -0.7373937155412458 -0.6754631805511506
-0.7115513633415603 -0.7026340849451916 -0.762199229341495 -0.6473425173671441
-0.7373937155412458 -0.6754631805511506 -0.7859330260761572 -0.6183116354418494
-0.7621992293414946 -0.6473425173671444 -0.8085617340046007 -0.5884113546690557
-0.7859330260761572 -0.6183116354418494 -0.8300535352352224 -0.5576837173914166
-0.8085617340046007 -0.5884113546690557 -0.8503782104641151 -0.5261719292853327
-0.8300535352352224 -0.5576837173914166 -0.8695071814659846 -0.4939202986100888
-0.8503782104641151 -0.5261719292853327 -0.8874135512775688 -0.4609741739066665
-0.8695071814659844 -0.4939202986100892 -0.9040721420170612 -0.4273798802338298
-0.8874135512775688 -0.4609741739066665 -0.9194595302863565 -0.39318465403114683
-0.9040721420170612 -0.4273798802338298 -0.9335540801063457 -0.35843657670052975
-0.9194595302863565 -0.39318465403114683 -0.9463359733389456 -0.3231845069996865
-0.9335540801063457 -0.35843657670052975 -0.9577872375530904 -0.2874780123425444
-0.9463359733389455 -0.32318450699968687 -0.9678917712955006 -0.2513672991032411
-0.9577872375530904 -0.2874780123425444 -0.976635366730699 -0.21490314202168667
-0.9678917712955006 -0.2513672991032411 -0.984005729618437 -0.17813681280995067
-0.976635366730699 -0.21490314202168667 -0.9899924966004454 -0.1411200080598672
-0.984005729618437 -0.17813681280995067 -0.9945872497721984 -0.10390477655322021
-0.9899924966004454 -0.1411200080598672 -0.9977835285192046 -0.0665434460767217
-0.9945872497721984 -0.10390477655322021 -0.9995768386011818 -0.029088549844685785
-0.9977835285192047 -0.06654344607672126 -0.999964658471342 0.008407247367149063
-0.9995768386011818 -0.029088549844685344 -0.9989464428219001 0.045891223272779696
-0.999964658471342 0.008407247367149063 -0.9965236233508247 0.08331067220796906
-0.9989464428219001 0.045891223272779696 -0.992699606748747 0.12061297923889858
-0.9965236233508247 0.08331067220796906 -0.9874797699088649 0.1577456941432482
-0.992699606748747 0.12061297923889902 -0.980871452366572 0.19465660515968014
-0.9874797699088649 0.15774569414324865 -0.9728839459794464 0.23129381240202182
-0.980871452366572 0.19465660515968014 -0.9635284818621059 0.26760580083493224
-0.9728839459794464 0.23129381240202182 -0.9528182145943048 0.3035415127084289
-0.9635284818621059 0.26760580083493224 -0.9407682037244736 0.3390504193494345
-0.9528182145943047 0.30354151270842933 -0.9273953925947103 0.37408259220939866
-0.9407682037244735 0.33905041934943486 -0.9127185845169985 0.4085887730680895
-0.9273953925947103 0.37408259220939866 -0.8967584163341472 0.4425204432948521
-0.9127185845169985 0.4085887730680895 -0.8795373294026319 0.47582989206993526
-0.8967584163341468 0.44252044329485285 -0.8610795380381353 0.5084702834699698
-0.8795373294026316 0.47582989206993564 -0.8414109954681566 0.5403957223232673
-0.8610795380381353 0.5084702834699698 -0.8205593573395608 0.5715613187423437
-0.8414109954681566 0.5403957223232673 -0.7985539428323829 0.6019232512429267
-0.8205593573395608 0.5715613187423437 -0.7754256934345628 0.6314388283606951
-0.7985539428323823 0.6019232512429273 -0.7512071294355769 0.6600665486791165
-0.7754256934345626 0.6314388283606954 -0.7259323042001399 0.6877661591839741
-0.7512071294355769 0.6600665486791165 -0.6996367562862716 0.7144987118625367
-0.7259323042001399 0.6877661591839741 -0.672357459475056 0.7402266184677828
-0.6996367562862716 0.7144987118625367 -0.6441327707823549 0.7649137033706784
-0.6723574594750553 0.7402266184677834 -0.6150023765255738 0.7885252544261956
-0.6441327707823542 0.764913703370679 -0.5850072365213228 0.8110280717815413
-0.6150023765255738 0.7885252544261956 -0.5541895264924167 0.8323905145579873
-0.5850072365213228 0.8110280717815413 -0.5225925787652196 0.852582545340636
-0.5541895264924167 0.8323905145579873 -0.4902608213407002 0.8715757724135877
-0.5225925787652188 0.8525825453406366 -0.4572397154248756 0.8893434896811123
-0.4902608213406994 0.8715757724135882 -0.42357569150648755 0.9058607142186932
-0.4572397154248756 0.8893434896811123 -0.38931608407176954 0.9211042214011522
-0.42357569150648755 0.9058607142186932 -0.35450906504813195 0.9350525775584491
-0.38931608407176954 0.9211042214011522 -0.31920357607032573 0.9476861701132478
-0.3545090650481311 0.9350525775584494 -0.28344925966433154 0.9589872351578734
-0.3192035760703249 0.9476861701132482 -0.24729638944574522 0.9689398824318763
-0.28344925966433154 0.9589872351578734 -0.2107957994307797 0.977530117665097
-0.24729638944574522 0.9689398824318763 -0.17399881255931365 0.9847458622547997
-0.2107957994307797 0.977530117665097 -0.13695716853046275 0.9905769702492171
-0.1739988125593128 0.9847458622547998 -0.09972295105215206 0.9950152426136245
-0.13695716853046186 0.9905769702492173 -0.06234851460699166 0.9980544387588794
-0.09972295105215206 0.9950152426136245 -0.02488641083740215 0.9996902853162234
-0.06234851460699166 0.9980544387588794 0.01261068534646556 0.9999204821460017
-0.02488641083740215 0.9996902853162234 0.050090049832144296 0.998744705571856
0.012610685346466447 0.9999204821460017 0.08749898343944727 0.9961646088358406
0.050090049832145184 0.9987447055718559 0.12478488601999901 0.9921838197738239
0.08749898343944727 0.9961646088358406 0.16189533041753676 0.9868079357144411
0.12478488601999901 0.9921838197738239 0.1987781361849526 0.980044515608774
0.16189533041753676 0.9868079357144411 0.23538144295445032 0.971903069401821
0.19877813618495346 0.9800445156087738 0.27165378335764334 0.962395044660704
0.23538144295445118 0.9719030694018208 0.3075441553930535 0.9515338104784156
0.27165378335764334 0.962395044660704 0.3430020941392817 0.9393346386757316
0.3075441553930535 0.9515338104784156 0.37797774271298024 0.9258146823277325
0.3430020941392817 0.9393346386757316 0.4124219223718815 0.9109929516451166
0.37797774271298107 0.9258146823277321 0.44628620166430166 0.8948902872442243
0.41242192237188235 0.9109929516451162 0.4795229645278822 0.8775293308433579
0.44628620166430166 0.8948902872442243 0.5120854772418407 0.858934493426592
0.4795229645278822 0.8775293308433579 0.5439279541385584 0.8391319209198529
0.5120854772418407 0.858934493426592 0.575005621982132 0.8181494574275177
0.5439279541385592 0.8391319209198524 0.6052747829233595 0.7960166060812299
0.5750056219821328 0.8181494574275171 0.6346928759426347 0.7727644875559871
0.6052747829233595 0.7960166060812299 0.6632185366943757 0.7484257963118128
0.6346928759426347 0.7727644875559871 0.6908116556688141 0.7230347546225644
0.6632185366943757 0.7484257963118128 0.7174334345893848 0.6966270644564987
0.6908116556688148 0.7230347546225637 0.7430464409664105 0.6692398572762613
0.7174334345893855 0.6966270644564981 0.7676146607303663 0.6409116418288909
0.7430464409664105 0.6692398572762613 0.7911035488707386 0.6116822499992318
0.7676146607303663 0.6409116418288909 0.8134800780092482 0.581592780802915
0.7911035488707386 0.6116822499992318 0.8347127848391593 0.5506855425976384
0.8134800780092487 0.5815927808029143 0.8547718143653716 0.5190039935940095
0.8347127848391598 0.5506855425976376 0.8736289618830834 0.486592680749604
0.8547718143653716 0.5190039935940095 0.8912577126360152 0.45349717713213844
0.8736289618830834 0.486592680749604 0.9076332790984132 0.41976401783985967
0.8912577126360152 0.45349717713213844 0.9227326358284232 0.38544063456922967
0.9076332790984135 0.4197640178398589 0.9365345518438252 0.35057528892191686
0.9227326358284236 0.38544063456922883 0.9490196204746001 0.3152170045448786
0.9365345518438252 0.35057528892191686 0.960170286650366 0.27941549819892586
0.9490196204746001 0.3152170045448786 0.9699708715843006 0.24322110985272685
0.960170286650366 0.27941549819892586 0.9784075948188508 0.2066847319005242
0.9699708715843006 0.24322110985272685 0.9854685936022328 0.16985773760308148
0.9784075948188508 0.2066847319005242 0.9911439395684689 0.1327919088525176
0.9854685936022328 0.16985773760308148 0.9954256526975189 0.0955393633625346
0.991143939568469 0.13279190885251674 0.9983077125358665 0.05815248138648695
0.9954256526975189 0.0955393633625346 0.9997860666617905 0.020683832066275748
0.9983077125358665 0.05815248138648695 0.9998586363834151 -0.0168139004843506
0.9997860666617905 0.020683832066275748 0.998525319661528 -0.05428799125813371
0.9998586363834151 -0.0168139004843506 0.9957879912530557 -0.09168574849017776
0.998525319661528 -0.05428799125813459 0.991650500074996 -0.12895458774704502
0.9957879912530557 -0.09168574849017776 0.9861186637925127 -0.16604210586495635
0.991650500074996 -0.12895458774704502 0.9792002606388015 -0.20289615463311098
0.9861186637925127 -0.16604210586495635 0.9709050184782341 -0.23946491411849882
0.9792002606388015 -0.20289615463311098 0.961244601128148 -0.27569696552916134
0.9709050184782338 -0.23946491411849968 0.9502325919585293 -0.3115413635133787
0.961244601128148 -0.27569696552916134 0.937884474792635 -0.3469477077931818
0.9502325919585293 -0.3115413635133787 0.9242176121354168 -0.38186621403144366
0.937884474792635 -0.3469477077931818 0.909251220760364 -0.41624778383288447
0.9242176121354168 -0.38186621403144366 0.8930063446890767 -0.4500440737806176
0.9092512207603637 -0.4162477838328853 0.875505825601583 -0.48320756341109833
0.8930063446890767 -0.4500440737806176 0.8567742707189892 -0.5156916220319507
0.875505825601583 -0.48320756341109833 0.8368380182036261 -0.5474505742887
0.8567742707189892 -0.5156916220319507 0.8157251001253574 -0.5784397643881994
0.8368380182036261 -0.5474505742887 0.7934652030460894 -0.608615618888497
0.8157251001253569 -0.5784397643882002 0.7700896262779447 -0.6379357079667947
0.7934652030460894 -0.608615618888497 0.7456312378737591 -0.6663588050794
0.7700896262779447 -0.6379357079667947 0.7201244284117936 -0.6938449449297643
0.7456312378737591 -0.6663588050794 0.693605062639662 -0.7203554796630831
0.7201244284117936 -0.6938449449297643 0.6661104290454266 -0.7458531332084875
0.6936050626396614 -0.7203554796630838 0.6376791874268166 -0.7703020536923648
0.6661104290454266 -0.7458531332084875 0.6083513145322552 -0.7936678638491527
0.6376791874268166 -0.7703020536923648 0.5781680478501389 -0.8159177093587071
0.6083513145322538 -0.7936678638491537 0.5471718276254267 -0.8370203050422673
0.5781680478501389 -0.8159177093587071 0.5154062371850283 -0.8569459788520921
0.5471718276254267 -0.8370203050422673 0.48291594165593704 -0.8756667135928827
0.5154062371850283 -0.8569459788520921 0.4497466251622582 -0.893156186316346
0.48291594165593704 -0.8756667135928827 0.41594492658942844 -0.9093898053335077
0.4497466251622566 -0.8931561863163467 0.3815583740059825 -0.9243447447927157
0.41594492658942844 -0.9093898053335077 0.3466353178350258 -0.9379999767747389
0.3815583740059825 -0.9243447447927157 0.31122486286942525 -0.95033630085981
0.3466353178350258 -0.9379999767747389 0.27537679922628916 -0.9613363711250522
0.31122486286942525 -0.95033630085981 0.23914153233780946 -0.9709847205343266
0.27537679922628744 -0.9613363711250527 0.20257001207694433 -0.9792677826862
0.23914153233780946 -0.9709847205343266 0.16571366111754054 -0.9861739108894643
0.20257001207694433 -0.9792677826862 0.1286243026296791 -0.9916933945393751
0.16571366111754054 -0.9861739108894643 0.09135408741188478 -0.9958184727715899
0.1286243026296791 -0.9916933945393751 0.05395542056264886 -0.998543345374605
0.091354087411883 -0.9958184727715901 0.01648088779441103 -0.9998641809453462
0.05395542056264886 -0.998543345374605 -0.021016818506448383 -0.9997791222764492
0.01648088779441103 -0.9998641809453462 -0.05848497336958661 -0.9982882889676502
-0.021016818506448383 -0.9997791222764492 -0.09587089337649693 -0.99539377725762
-0.05848497336958661 -0.9982882889676502 -0.13312201073789504 -0.9910996570764716
-0.09587089337649869 -0.9953937772576198 -0.17018594720849423 -0.9854119663230946
-0.13312201073789504 -0.9910996570764716 -0.20701058773529676 -0.9783387023753517
-0.17018594720849423 -0.9854119663230946 -0.24354415373579286 -0.9698898108450859
-0.20701058773529676 -0.9783387023753517 -0.279735275903053 -0.9600771715937437
-0.24354415373579286 -0.9698898108450859 -0.31553306643537005 -0.9489145820282732
-0.27973527590305475 -0.9600771715937432 -0.35088719058882034 -0.9364177377008003
-0.31553306643537005 -0.9489145820282732 -0.3857479374522218 -0.9226042102393402
-0.35088719058882034 -0.9364177377008003 -0.4200662898449042 -0.9074934226405924
-0.3857479374522218 -0.9226042102393402 -0.4537939932390356 -0.8911066219595555
-0.4200662898449042 -0.9074934226405924 -0.486883623609618 -0.873466849434349
-0.45379399323903713 -0.8911066219595547 -0.5192886541166856 -0.8545989080882804
-0.486883623609618 -0.873466849434349 -0.5509635205260235 -0.8345293278546717
-0.5192886541166856 -0.8545989080882804 -0.5818636852763576 -0.8132863282735152
-0.5509635205260235 -0.8345293278546717 -0.6119457001029548 -0.7908997788124008
-0.5818636852763576 -0.8132863282735152 -0.6411672671296018 -0.7674011568674873
-0.6119457001029562 -0.7908997788123997 -0.6694872983430035 -0.7428235035036158
-0.6411672671296018 -0.7674011568674873 -0.6968659733660458 -0.7172013769957456
-0.6694872983430035 -0.7428235035036158 -0.723264795448634 -0.6905708042370786
-0.6968659733660458 -0.7172013769957456 -0.7486466455973987 -0.6629692300821833
-0.723264795448634 -0.6905708042370786 -0.7729758347681769 -0.6344354646963236
-0.7486466455973999 -0.662969230082182 -0.7962181540478327 -0.6050096289850782
-0.7729758347681769 -0.6344354646963236 -0.8183409227549167 -0.5747330981809134
-0.7962181540478327 -0.6050096289850782 -0.8393130343914846 -0.5436484436660869
-0.8183409227549167 -0.5747330981809134 -0.8591050003814804 -0.5117993731136612
-0.8393130343914846 -0.5436484436660869 -0.8776889915341967 -0.4792306690307757
-0.8591050003814813 -0.5117993731136598 -0.895038877174476 -0.44598812579064606
-0.8776889915341967 -0.4792306690307757 -0.9111302618846769 -0.4121184852417566
-0.895038877174476 -0.44598812579064606 -0.9259405198067056 -0.3776693709848444
-0.9111302618846769 -0.4121184852417566 -0.9394488264558977 -0.3426892214100652
-0.9259405198067056 -0.3776693709848444 -0.9516361880020265 -0.3072272215884711
-0.9394488264558982 -0.3426892214100635 -0.9624854679762374 -0.27133323411363275
-0.9516361880020265 -0.3072272215884711 -0.9719814113663893 -0.23505772899056523
-0.9624854679762374 -0.27133323411363275 -0.9801106660669001 -0.19845171267060738
-0.9719814113663893 -0.23505772899056523 -0.9868618016529436 -0.1615666563320115
-0.9801106660669001 -0.19845171267060738 -0.9922253254526034 -0.1244544235070617
-0.9868618016529438 -0.16156665633200976 -0.9961936958943759 -0.0871671971575525
-0.9922253254526034 -0.1244544235070617 -0.998761333111264 -0.04975740630107862
-0.9961936958943759 -0.0871671971575525 -0.9999246267865454 -0.01227765229137559
-0.998761333111264 -0.04975740630107862 -0.9996819412301848 0.02521936514365872
-0.9999246267865454 -0.01227765229137559 -0.9980336176787546 0.06268092200229182
-0.9996819412301848 0.025219365143660497 -0.9949819738156265 0.10005434414337087
